This file contains output data from Touchstone simulation...
FREQ-GHZ  DB[S11]  DB[S21]  DB[S11]  S21TRUE  DB[S21]   RE[Z1]   IM[Z1]   RE[Z1]   IM[Z1]  RE[S11]  IM[S11]  RE[S11]  IM[S11] MAG[S11] ANG[S11] MAG[S11] ANG[S11]
           C20F75   C20F75 C20F75IE   OUTEQN C20F75IE C20F75IE C20F75IE   C20F75   C20F75 C20F75IE C20F75IE   C20F75   C20F75 C20F75IE C20F75IE   C20F75   C20F75
                                          DB
 4.30000   -2.846  -11.630   -1.429   -8.449  -14.651   10.843   63.516   13.918  -41.296    0.214    0.821   -0.104   -0.713    0.848   75.422    0.721  -98.279
 4.30500   -2.881  -11.548   -1.431   -8.404  -14.627   10.899   63.704   14.010  -41.005    0.216    0.820   -0.108   -0.710    0.848   75.251    0.718  -98.629
 4.31000   -2.917  -11.466   -1.433   -8.360  -14.604   10.956   63.894   14.104  -40.714    0.218    0.819   -0.112   -0.706    0.848   75.080    0.715  -98.981
 4.31500   -2.953  -11.384   -1.435   -8.316  -14.581   11.013   64.084   14.198  -40.423    0.221    0.819   -0.115   -0.702    0.848   74.909    0.712  -99.334
 4.32000   -2.990  -11.302   -1.437   -8.272  -14.558   11.071   64.274   14.293  -40.132    0.223    0.818   -0.119   -0.699    0.848   74.738    0.709  -99.689
 4.32500   -3.027  -11.222   -1.439   -8.228  -14.535   11.129   64.465   14.388  -39.842    0.225    0.817   -0.123   -0.695    0.847   74.567    0.706 -100.044
 4.33000   -3.065  -11.142   -1.441   -8.185  -14.513   11.188   64.656   14.484  -39.552    0.228    0.816   -0.127   -0.691    0.847   74.397    0.703 -100.400
 4.33500   -3.103  -11.062   -1.443   -8.142  -14.490   11.247   64.848   14.580  -39.262    0.230    0.815   -0.131   -0.687    0.847   74.226    0.700 -100.758
 4.34000   -3.141  -10.983   -1.445   -8.100  -14.468   11.307   65.041   14.678  -38.971    0.233    0.814   -0.134   -0.683    0.847   74.056    0.697 -101.117
 4.34500   -3.180  -10.905   -1.447   -8.058  -14.446   11.367   65.233   14.775  -38.683    0.235    0.813   -0.138   -0.680    0.847   73.886    0.693 -101.476
 4.35000   -3.219  -10.827   -1.450   -8.016  -14.425   11.428   65.427   14.874  -38.394    0.237    0.812   -0.142   -0.676    0.846   73.716    0.690 -101.837
 4.35500   -3.259  -10.750   -1.452   -7.974  -14.403   11.489   65.621   14.973  -38.105    0.240    0.811   -0.145   -0.672    0.846   73.546    0.687 -102.199
 4.36000   -3.299  -10.672   -1.454   -7.933  -14.382   11.551   65.815   15.073  -37.816    0.242    0.811   -0.149   -0.668    0.846   73.376    0.684 -102.563
 4.36500   -3.340  -10.596   -1.456   -7.892  -14.361   11.614   66.010   15.173  -37.529    0.244    0.810   -0.152   -0.664    0.846   73.206    0.681 -102.927
 4.37000   -3.381  -10.521   -1.458   -7.852  -14.340   11.677   66.205   15.274  -37.241    0.247    0.809   -0.156   -0.659    0.845   73.037    0.678 -103.293
 4.37500   -3.422  -10.446   -1.461   -7.812  -14.319   11.741   66.401   15.375  -36.953    0.249    0.808   -0.159   -0.655    0.845   72.867    0.674 -103.659
 4.38000   -3.465  -10.371   -1.463   -7.772  -14.299   11.805   66.598   15.478  -36.666    0.251    0.807   -0.163   -0.651    0.845   72.698    0.671 -104.028
 4.38500   -3.507  -10.297   -1.465   -7.732  -14.279   11.870   66.794   15.580  -36.379    0.254    0.806   -0.166   -0.647    0.845   72.529    0.668 -104.396
 4.39000   -3.550  -10.224   -1.468   -7.693  -14.259   11.936   66.991   15.683  -36.093    0.256    0.805   -0.169   -0.643    0.845   72.359    0.665 -104.766
 4.39500   -3.593  -10.151   -1.470   -7.654  -14.239   12.002   67.190   15.787  -35.807    0.258    0.804   -0.173   -0.638    0.844   72.190    0.661 -105.137
 4.40000   -3.637  -10.078   -1.473   -7.616  -14.219   12.068   67.388   15.892  -35.520    0.261    0.803   -0.176   -0.634    0.844   72.021    0.658 -105.510
 4.40500   -3.682  -10.007   -1.475   -7.578  -14.200   12.136   67.587   15.997  -35.235    0.263    0.802   -0.179   -0.630    0.844   71.852    0.655 -105.883
 4.41000   -3.727   -9.936   -1.477   -7.540  -14.181   12.204   67.787   16.103  -34.950    0.265    0.801   -0.182   -0.625    0.844   71.684    0.651 -106.258
 4.41500   -3.772   -9.865   -1.480   -7.503  -14.162   12.273   67.987   16.209  -34.665    0.267    0.800   -0.185   -0.621    0.843   71.515    0.648 -106.634
 4.42000   -3.818   -9.795   -1.482   -7.465  -14.144   12.342   68.188   16.317  -34.380    0.270    0.799   -0.189   -0.616    0.843   71.346    0.644 -107.011
 4.42500   -3.864   -9.726   -1.485   -7.429  -14.125   12.412   68.389   16.424  -34.096    0.272    0.798   -0.192   -0.612    0.843   71.178    0.641 -107.389
 4.43000   -3.911   -9.658   -1.487   -7.393  -14.107   12.483   68.590   16.532  -33.812    0.274    0.797   -0.195   -0.607    0.843   71.010    0.637 -107.768
 4.43500   -3.958   -9.590   -1.490   -7.357  -14.089   12.555   68.793   16.641  -33.528    0.276    0.796   -0.197   -0.602    0.842   70.841    0.634 -108.148
 4.44000   -4.006   -9.522   -1.493   -7.321  -14.071   12.627   68.996   16.751  -33.244    0.279    0.795   -0.200   -0.598    0.842   70.673    0.631 -108.530
 4.44500   -4.054   -9.455   -1.495   -7.286  -14.054   12.700   69.199   16.861  -32.961    0.281    0.794   -0.203   -0.593    0.842   70.505    0.627 -108.912
 4.45000   -4.103   -9.389   -1.498   -7.251  -14.037   12.774   69.403   16.971  -32.678    0.283    0.793   -0.206   -0.588    0.842   70.337    0.624 -109.296
 4.45500   -4.153   -9.324   -1.501   -7.217  -14.020   12.848   69.608   17.083  -32.395    0.285    0.791   -0.209   -0.584    0.841   70.169    0.620 -109.681
 4.46000   -4.203   -9.258   -1.503   -7.182  -14.003   12.923   69.814   17.195  -32.113    0.288    0.790   -0.212   -0.579    0.841   70.000    0.616 -110.068
 4.46500   -4.253   -9.194   -1.506   -7.149  -13.986   12.999   70.019   17.307  -31.831    0.290    0.789   -0.214   -0.574    0.841   69.833    0.613 -110.455
 4.47000   -4.304   -9.131   -1.509   -7.116  -13.970   13.076   70.226   17.420  -31.549    0.292    0.788   -0.217   -0.569    0.841   69.665    0.609 -110.844
 4.47500   -4.355   -9.068   -1.512   -7.083  -13.954   13.153   70.433   17.534  -31.268    0.294    0.787   -0.219   -0.565    0.840   69.497    0.606 -111.234
 4.48000   -4.407   -9.005   -1.514   -7.050  -13.938   13.231   70.641   17.648  -30.986    0.297    0.786   -0.222   -0.560    0.840   69.329    0.602 -111.625
 4.48500   -4.460   -8.944   -1.517   -7.018  -13.922   13.311   70.849   17.763  -30.705    0.299    0.785   -0.224   -0.555    0.840   69.162    0.598 -112.017
 4.49000   -4.513   -8.883   -1.520   -6.987  -13.907   13.391   71.057   17.878  -30.425    0.301    0.784   -0.227   -0.550    0.839   68.994    0.595 -112.411
 4.49500   -4.566   -8.822   -1.523   -6.955  -13.891   13.472   71.267   17.994  -30.144    0.303    0.782   -0.229   -0.545    0.839   68.826    0.591 -112.806
 4.50000   -4.620   -8.762   -1.526   -6.924  -13.876   13.553   71.477   18.111  -29.864    0.305    0.781   -0.231   -0.540    0.839   68.659    0.587 -113.203
 4.50500   -4.675   -8.703   -1.529   -6.894  -13.861   13.636   71.688   18.228  -29.584    0.307    0.780   -0.234   -0.535    0.839   68.491    0.584 -113.600
 4.51000   -4.730   -8.645   -1.532   -6.863  -13.847   13.720   71.899   18.346  -29.305    0.310    0.779   -0.236   -0.530    0.838   68.324    0.580 -113.999
 4.51500   -4.786   -8.587   -1.535   -6.834  -13.833   13.804   72.111   18.465  -29.025    0.312    0.778   -0.238   -0.525    0.838   68.157    0.576 -114.399
 4.52000   -4.843   -8.530   -1.538   -6.804  -13.818   13.889   72.324   18.584  -28.746    0.314    0.777   -0.240   -0.520    0.838   67.989    0.573 -114.801
 4.52500   -4.900   -8.473   -1.542   -6.775  -13.804   13.976   72.537   18.703  -28.467    0.316    0.775   -0.242   -0.515    0.837   67.822    0.569 -115.204
 4.53000   -4.957   -8.418   -1.545   -6.747  -13.791   14.063   72.751   18.824  -28.188    0.318    0.774   -0.244   -0.510    0.837   67.655    0.565 -115.608
 4.53500   -5.015   -8.363   -1.548   -6.719  -13.777   14.151   72.965   18.945  -27.910    0.320    0.773   -0.246   -0.504    0.837   67.487    0.561 -116.014
 4.54000   -5.074   -8.308   -1.551   -6.691  -13.764   14.240   73.181   19.066  -27.631    0.323    0.772   -0.248   -0.499    0.836   67.320    0.558 -116.422
 4.54500   -5.133   -8.254   -1.555   -6.664  -13.751   14.331   73.396   19.188  -27.354    0.325    0.771   -0.250   -0.494    0.836   67.153    0.554 -116.831
 4.55000   -5.193   -8.202   -1.558   -6.637  -13.738   14.422   73.613   19.311  -27.076    0.327    0.769   -0.252   -0.489    0.836   66.986    0.550 -117.241
 4.55500   -5.253   -8.149   -1.561   -6.611  -13.726   14.514   73.830   19.435  -26.798    0.329    0.768   -0.253   -0.484    0.835   66.819    0.546 -117.654
 4.56000   -5.315   -8.097   -1.565   -6.584  -13.713   14.607   74.048   19.559  -26.520    0.331    0.767   -0.255   -0.479    0.835   66.652    0.542 -118.068
 4.56500   -5.376   -8.046   -1.568   -6.559  -13.701   14.702   74.266   19.683  -26.243    0.333    0.765   -0.257   -0.473    0.835   66.484    0.539 -118.483
 4.57000   -5.439   -7.996   -1.572   -6.534  -13.689   14.798   74.485   19.809  -25.966    0.335    0.764   -0.258   -0.468    0.834   66.317    0.535 -118.900
 4.57500   -5.502   -7.946   -1.575   -6.509  -13.677   14.895   74.705   19.935  -25.689    0.337    0.763   -0.260   -0.463    0.834   66.150    0.531 -119.318
 4.58000   -5.565   -7.897   -1.579   -6.485  -13.666   14.992   74.925   20.061  -25.412    0.339    0.762   -0.261   -0.458    0.834   65.983    0.527 -119.739
 4.58500   -5.629   -7.849   -1.583   -6.461  -13.655   15.091   75.146   20.188  -25.136    0.341    0.760   -0.263   -0.452    0.833   65.816    0.523 -120.161
 4.59000   -5.694   -7.802   -1.586   -6.438  -13.644   15.192   75.368   20.316  -24.859    0.344    0.759   -0.264   -0.447    0.833   65.649    0.519 -120.585
 4.59500   -5.760   -7.755   -1.590   -6.415  -13.633   15.293   75.590   20.445  -24.583    0.346    0.758   -0.265   -0.442    0.833   65.482    0.515 -121.011
 4.60000   -5.826   -7.709   -1.594   -6.392  -13.622   15.395   75.813   20.574  -24.306    0.348    0.756   -0.267   -0.436    0.832   65.315    0.511 -121.439
 4.60500   -5.893   -7.664   -1.598   -6.371  -13.612   15.500   76.037   20.704  -24.030    0.350    0.755   -0.268   -0.431    0.832   65.148    0.507 -121.869
 4.61000   -5.961   -7.619   -1.601   -6.350  -13.602   15.605   76.261   20.835  -23.754    0.352    0.754   -0.269   -0.426    0.832   64.981    0.503 -122.300
 4.61500   -6.029   -7.575   -1.605   -6.329  -13.592   15.711   76.486   20.966  -23.478    0.354    0.752   -0.270   -0.420    0.831   64.814    0.500 -122.734
 4.62000   -6.098   -7.532   -1.609   -6.308  -13.582   15.818   76.712   21.098  -23.202    0.356    0.751   -0.271   -0.415    0.831   64.646    0.496 -123.170
 4.62500   -6.168   -7.490   -1.613   -6.288  -13.573   15.928   76.938   21.231  -22.926    0.358    0.749   -0.272   -0.409    0.830   64.479    0.492 -123.608
 4.63000   -6.238   -7.448   -1.618   -6.269  -13.564   16.039   77.165   21.364  -22.650    0.360    0.748   -0.273   -0.404    0.830   64.312    0.488 -124.048
 4.63500   -6.309   -7.407   -1.622   -6.250  -13.555   16.150   77.393   21.498  -22.374    0.362    0.747   -0.274   -0.399    0.830   64.145    0.484 -124.491
 4.64000   -6.381   -7.366   -1.626   -6.231  -13.546   16.263   77.621   21.633  -22.098    0.364    0.745   -0.275   -0.393    0.829   63.978    0.480 -124.936
 4.64500   -6.454   -7.327   -1.630   -6.213  -13.537   16.378   77.850   21.769  -21.823    0.366    0.744   -0.275   -0.388    0.829   63.811    0.476 -125.383
 4.65000   -6.527   -7.288   -1.635   -6.196  -13.529   16.495   78.080   21.906  -21.547    0.368    0.742   -0.276   -0.382    0.828   63.643    0.472 -125.833
 4.65500   -6.602   -7.250   -1.639   -6.179  -13.521   16.612   78.310   22.043  -21.271    0.370    0.741   -0.277   -0.377    0.828   63.476    0.468 -126.285
 4.66000   -6.676   -7.213   -1.643   -6.162  -13.513   16.731   78.541   22.181  -20.995    0.372    0.739   -0.277   -0.372    0.828   63.309    0.464 -126.740
 4.66500   -6.752   -7.177   -1.648   -6.146  -13.505   16.852   78.773   22.320  -20.719    0.374    0.738   -0.278   -0.366    0.827   63.142    0.460 -127.197
 4.67000   -6.829   -7.141   -1.652   -6.131  -13.498   16.975   79.005   22.460  -20.444    0.376    0.736   -0.278   -0.361    0.827   62.974    0.456 -127.657
 4.67500   -6.907   -7.106   -1.657   -6.116  -13.491   17.099   79.238   22.601  -20.168    0.378    0.735   -0.279   -0.355    0.826   62.807    0.452 -128.120
 4.68000   -6.985   -7.071   -1.662   -6.101  -13.483   17.224   79.472   22.742  -19.892    0.380    0.733   -0.279   -0.350    0.826   62.640    0.447 -128.586
 4.68500   -7.064   -7.038   -1.667   -6.087  -13.477   17.352   79.706   22.885  -19.616    0.381    0.732   -0.279   -0.344    0.825   62.472    0.443 -129.054
 4.69000   -7.144   -7.006   -1.671   -6.074  -13.470   17.481   79.941   23.028  -19.340    0.383    0.730   -0.280   -0.339    0.825   62.305    0.439 -129.525
 4.69500   -7.225   -6.974   -1.676   -6.061  -13.464   17.612   80.176   23.173  -19.063    0.385    0.729   -0.280   -0.333    0.824   62.138    0.435 -130.000
 4.70000   -7.307   -6.942   -1.681   -6.049  -13.458   17.743   80.412   23.317  -18.787    0.387    0.727   -0.280   -0.328    0.824   61.970    0.431 -130.478
 4.70500   -7.390   -6.912   -1.686   -6.038  -13.452   17.879   80.649   23.464  -18.511    0.389    0.726   -0.280   -0.323    0.824   61.803    0.427 -130.959
 4.71000   -7.474   -6.883   -1.692   -6.027  -13.446   18.016   80.886   23.612  -18.234    0.391    0.724   -0.280   -0.317    0.823   61.635    0.423 -131.443
 4.71500   -7.559   -6.854   -1.697   -6.016  -13.441   18.153   81.124   23.760  -17.957    0.393    0.723   -0.280   -0.312    0.823   61.467    0.419 -131.931
 4.72000   -7.645   -6.825   -1.702   -6.006  -13.435   18.292   81.363   23.909  -17.681    0.395    0.721   -0.280   -0.306    0.822   61.300    0.415 -132.423
 4.72500   -7.732   -6.799   -1.707   -5.997  -13.431   18.436   81.601   24.060  -17.404    0.397    0.719   -0.280   -0.301    0.822   61.132    0.411 -132.917
 4.73000   -7.820   -6.772   -1.713   -5.988  -13.426   18.580   81.841   24.212  -17.127    0.398    0.718   -0.279   -0.295    0.821   60.964    0.406 -133.415
 4.73500   -7.909   -6.747   -1.718   -5.980  -13.421   18.726   82.081   24.365  -16.849    0.400    0.716   -0.279   -0.290    0.820   60.797    0.402 -133.918
 4.74000   -7.998   -6.722   -1.724   -5.972  -13.417   18.873   82.322   24.518  -16.572    0.402    0.715   -0.279   -0.284    0.820   60.629    0.398 -134.425
 4.74500   -8.090   -6.698   -1.730   -5.965  -13.413   19.024   82.563   24.674  -16.294    0.404    0.713   -0.278   -0.279    0.819   60.461    0.394 -134.934
 4.75000   -8.182   -6.675   -1.736   -5.959  -13.409   19.177   82.805   24.831  -16.016    0.406    0.711   -0.278   -0.273    0.819   60.293    0.390 -135.448
 4.75500   -8.276   -6.653   -1.742   -5.953  -13.406   19.331   83.047   24.989  -15.738    0.408    0.710   -0.277   -0.268    0.818   60.126    0.386 -135.967
 4.76000   -8.370   -6.631   -1.747   -5.948  -13.402   19.487   83.290   25.147  -15.460    0.409    0.708   -0.277   -0.263    0.818   59.958    0.382 -136.490
 4.76500   -8.466   -6.611   -1.754   -5.944  -13.399   19.647   83.533   25.309  -15.182    0.411    0.706   -0.276   -0.257    0.817   59.790    0.377 -137.017
 4.77000   -8.564   -6.591   -1.760   -5.940  -13.396   19.809   83.776   25.471  -14.903    0.413    0.704   -0.275   -0.252    0.817   59.622    0.373 -137.548
 4.77500   -8.662   -6.572   -1.766   -5.937  -13.393   19.973   84.020   25.634  -14.624    0.415    0.703   -0.275   -0.246    0.816   59.454    0.369 -138.084
 4.78000   -8.761   -6.553   -1.772   -5.934  -13.391   20.138   84.265   25.798  -14.345    0.416    0.701   -0.274   -0.241    0.815   59.286    0.365 -138.627
 4.78500   -8.863   -6.537   -1.779   -5.932  -13.389   20.308   84.509   25.966  -14.066    0.418    0.699   -0.273   -0.236    0.815   59.118    0.360 -139.171
 4.79000   -8.966   -6.521   -1.786   -5.931  -13.387   20.480   84.754   26.135  -13.787    0.420    0.698   -0.272   -0.230    0.814   58.950    0.356 -139.722
 4.79500   -9.070   -6.505   -1.792   -5.931  -13.385   20.653   85.000   26.304  -13.507    0.422    0.696   -0.271   -0.225    0.814   58.782    0.352 -140.278
 4.80000   -9.175   -6.490   -1.799   -5.930  -13.383   20.828   85.246   26.474  -13.227    0.423    0.694   -0.270   -0.220    0.813   58.613    0.348 -140.841
 4.80500   -9.282   -6.477   -1.806   -5.932  -13.382   21.009   85.491   26.649  -12.947    0.425    0.692   -0.268   -0.214    0.812   58.445    0.343 -141.406
 4.81000   -9.391   -6.464   -1.813   -5.933  -13.381   21.191   85.737   26.824  -12.667    0.427    0.690   -0.267   -0.209    0.812   58.277    0.339 -141.978
 4.81500   -9.501   -6.452   -1.820   -5.935  -13.380   21.375   85.984   27.001  -12.387    0.428    0.689   -0.266   -0.204    0.811   58.109    0.335 -142.556
 4.82000   -9.612   -6.440   -1.827   -5.937  -13.379   21.561   86.231   27.178  -12.106    0.430    0.687   -0.265   -0.198    0.810   57.941    0.331 -143.142
 4.82500   -9.726   -6.431   -1.835   -5.942  -13.379   21.753   86.477   27.360  -11.825    0.432    0.685   -0.263   -0.193    0.810   57.773    0.326 -143.729
 4.83000   -9.841   -6.422   -1.842   -5.946  -13.378   21.947   86.724   27.544  -11.545    0.433    0.683   -0.262   -0.188    0.809   57.605    0.322 -144.324
 4.83500   -9.958   -6.413   -1.850   -5.951  -13.378   22.142   86.971   27.728  -11.264    0.435    0.681   -0.260   -0.183    0.808   57.437    0.318 -144.927
 4.84000  -10.076   -6.405   -1.857   -5.956  -13.378   22.339   87.219   27.914  -10.982    0.437    0.679   -0.258   -0.177    0.807   57.268    0.313 -145.538
 4.84500  -10.197   -6.399   -1.865   -5.963  -13.379   22.544   87.465   28.104  -10.702    0.438    0.677   -0.257   -0.172    0.807   57.100    0.309 -146.151
 4.85000  -10.319   -6.394   -1.873   -5.970  -13.380   22.750   87.711   28.296  -10.420    0.440    0.675   -0.255   -0.167    0.806   56.932    0.305 -146.772
 4.85500  -10.444   -6.389   -1.881   -5.978  -13.380   22.958   87.958   28.489  -10.139    0.441    0.674   -0.253   -0.162    0.805   56.764    0.300 -147.402
 4.86000  -10.570   -6.385   -1.890   -5.986  -13.381   23.167   88.206   28.684   -9.857    0.443    0.672   -0.251   -0.157    0.804   56.596    0.296 -148.042
 4.86500  -10.699   -6.383   -1.898   -5.996  -13.383   23.385   88.451   28.884   -9.577    0.444    0.670   -0.249   -0.152    0.804   56.428    0.292 -148.682
 4.87000  -10.830   -6.381   -1.907   -6.006  -13.384   23.604   88.696   29.086   -9.296    0.446    0.668   -0.247   -0.147    0.803   56.260    0.287 -149.333
 4.87500  -10.962   -6.380   -1.915   -6.017  -13.386   23.825   88.942   29.289   -9.014    0.447    0.666   -0.245   -0.142    0.802   56.092    0.283 -149.993
 4.88000  -11.097   -6.379   -1.924   -6.028  -13.388   24.048   89.189   29.493   -8.733    0.449    0.664   -0.243   -0.137    0.801   55.925    0.279 -150.664
 4.88500  -11.235   -6.381   -1.933   -6.041  -13.390   24.280   89.432   29.704   -8.453    0.450    0.662   -0.241   -0.132    0.800   55.757    0.274 -151.336
 4.89000  -11.376   -6.383   -1.943   -6.055  -13.393   24.513   89.676   29.917   -8.172    0.452    0.660   -0.238   -0.127    0.800   55.589    0.270 -152.019
 4.89500  -11.518   -6.386   -1.952   -6.068  -13.395   24.748   89.920   30.131   -7.892    0.453    0.658   -0.236   -0.122    0.799   55.422    0.266 -152.713
